Wavelength nm.,alpha
200,#NUM!
202,#NUM!
204,#NUM!
206,8.724120813
208,#NUM!
210,#NUM!
212,#NUM!
214,#NUM!
216,#NUM!
218,#NUM!
220,#NUM!
222,#NUM!
224,#NUM!
226,#NUM!
228,#NUM!
230,#NUM!
232,#NUM!
234,#NUM!
236,#NUM!
238,#NUM!
240,#NUM!
242,#NUM!
244,#NUM!
246,#NUM!
248,#NUM!
250,#NUM!
252,#NUM!
254,#NUM!
256,#NUM!
258,#NUM!
260,#NUM!
262,#NUM!
264,#NUM!
266,#NUM!
268,#NUM!
270,#NUM!
272,#NUM!
274,#NUM!
276,11.13276394
278,8.556895233
280,9.134517883
282,#NUM!
284,#NUM!
286,#NUM!
288,#NUM!
290,#NUM!
292,#NUM!
294,#NUM!
296,#NUM!
298,#NUM!
300,#NUM!
302,#NUM!
304,9.639631053
306,#NUM!
308,#NUM!
310,#NUM!
312,8.355926852
314,#NUM!
316,#NUM!
318,#NUM!
320,#NUM!
322,8.123665684
324,8.219007643
326,9.511172153
328,#NUM!
330,#NUM!
332,#NUM!
334,7.840060845
336,8.123665684
338,#NUM!
340,#NUM!
342,#NUM!
344,#NUM!
346,#NUM!
348,#NUM!
350,#NUM!
352,#NUM!
354,#NUM!
356,#NUM!
358,#NUM!
360,#NUM!
362,#NUM!
364,#NUM!
366,#NUM!
368,#NUM!
370,8.679064795
372,#NUM!
374,#NUM!
376,#NUM!
378,#NUM!
380,#NUM!
382,#NUM!
384,#NUM!
386,#NUM!
388,#NUM!
390,#NUM!
392,#NUM!
394,#NUM!
396,#NUM!
398,#NUM!
400,#NUM!
402,#NUM!
404,#NUM!
406,#NUM!
408,#NUM!
410,#NUM!
412,#NUM!
414,#NUM!
416,#NUM!
418,#NUM!
420,#NUM!
422,#NUM!
424,#NUM!
426,#NUM!
428,#NUM!
430,#NUM!
432,#NUM!
434,#NUM!
436,#NUM!
438,#NUM!
440,#NUM!
442,#NUM!
444,#NUM!
446,#NUM!
448,#NUM!
450,#NUM!
452,#NUM!
454,#NUM!
456,#NUM!
458,#NUM!
460,#NUM!
462,#NUM!
464,#NUM!
466,#NUM!
468,#NUM!
470,#NUM!
472,#NUM!
474,#NUM!
476,#NUM!
478,#NUM!
480,#NUM!
482,#NUM!
484,#NUM!
486,#NUM!
488,#NUM!
490,#NUM!
492,#NUM!
494,#NUM!
496,#NUM!
498,#NUM!
500,#NUM!
502,#NUM!
504,#NUM!
506,#NUM!
508,#NUM!
510,#NUM!
512,#NUM!
514,#NUM!
516,#NUM!
518,#NUM!
520,#NUM!
522,#NUM!
524,#NUM!
526,#NUM!
528,#NUM!
530,#NUM!
532,#NUM!
534,#NUM!
536,#NUM!
538,#NUM!
540,#NUM!
542,#NUM!
544,#NUM!
546,#NUM!
548,#NUM!
550,#NUM!
552,#NUM!
554,#NUM!
556,#NUM!
558,9.213943033
560,#NUM!
562,#NUM!
564,#NUM!
566,#NUM!
568,9.062008403
570,#NUM!
572,#NUM!
574,#NUM!
576,#NUM!
578,#NUM!
580,#NUM!
582,#NUM!
584,#NUM!
586,#NUM!
588,#NUM!
590,#DIV/0!
592,8.219007643
594,8.038120555
596,7.778304202
598,7.924307609
600,7.628853428
602,7.763554554
604,7.808610572
606,8.933549503
608,8.484385752
610,7.960545203
612,7.592351242
614,7.734816074
616,9.511172153
618,#NUM!
620,#NUM!
622,#NUM!
624,#NUM!
626,#NUM!
628,#NUM!
630,#NUM!
632,#NUM!
634,#NUM!
636,9.639631053
638,#NUM!
640,8.079795906
642,8.595661913
644,7.778304202
646,#NUM!
648,8.450367423
650,#NUM!
652,10.55514129
654,9.213943033
656,#NUM!
658,7.808610572
660,8.724120813
662,7.440416612
664,9.062008403
666,#NUM!
668,#NUM!
670,#NUM!
672,#NUM!
674,#NUM!
676,#NUM!
678,#NUM!
680,#NUM!
682,8.933549503
684,8.876055443
686,9.511172153
688,9.791565684
690,#NUM!
692,#NUM!
694,#NUM!
696,#NUM!
698,#NUM!
700,10.2172537
702,#NUM!
704,#NUM!
706,#NUM!
708,#NUM!
710,8.355926852
712,8.018039262
714,8.123665684
716,7.924307609
718,8.194130174
720,7.512926093
722,7.303497402
724,7.28683018
726,7.122610315
728,7.002908063
730,6.862793961
732,6.738597645
734,6.611972263
736,6.449096556
738,6.318053675
740,6.167410033
742,6.010822896
744,5.872984936
746,5.754743112
748,5.620492611
750,5.507821283
752,5.405127416
754,5.292342959
756,5.177120461
758,5.068390839
760,4.972737638
762,4.871794323
764,4.781359778
766,4.68985392
768,4.606416214
770,4.518582703
772,4.439401182
774,4.35501906
776,4.28108358
778,4.205575589
780,4.133338818
782,4.060657463
784,3.99016975
786,3.914730781
788,3.844098666
790,3.772882331
792,3.705141828
794,3.640521686
796,3.581810556
798,3.520109195
800,3.462076285
802,3.401799323
804,3.343334088
806,3.283749872
808,3.228776263
810,3.173522973
812,3.122932729
814,3.071297383
816,3.02252731
818,2.969604797
820,2.918314864
822,2.87218475
824,2.823942864
826,2.776867338
828,2.732693593
830,2.691009725
832,2.649508583
834,2.607659044
836,2.566780192
838,2.527922463
840,2.488187959
842,2.450735051
844,2.414416414
846,2.378358366
848,2.342898678
850,2.308802478
852,2.276410153
854,2.245210517
856,2.214292916
858,2.183812486
860,2.154163476
862,2.124876204
864,2.094616144
866,2.066200854
868,2.037887831
870,2.010152993
872,1.982147276
874,1.956055467
876,1.929169888
878,1.904041433
880,1.878883586
882,1.854670004
884,1.830702301
886,1.807312677
888,1.784281865
890,1.762208225
892,1.740014224
894,1.71780688
896,1.695763354
898,1.673337271
900,1.650650142
902,1.628434379
904,1.606650837
906,1.586198269
908,1.566140924
910,1.546538185
912,1.526966805
914,1.508447073
916,1.489457562
918,1.471144709
920,1.453466368
922,1.436450084
924,1.419290362
926,1.402752917
928,1.386426202
930,1.370563053
932,1.354809081
934,1.338875184
936,1.323671506
938,1.308544225
940,1.293469306
942,1.27843049
944,1.264311546
946,1.24969108
948,1.235786094
950,1.221995339
952,1.208709484
954,1.19540026
956,1.182566559
958,1.169590294
960,1.156791915
962,1.144036604
964,1.131754813
966,1.119560686
968,1.107542426
970,1.095557914
972,1.083825391
974,1.071794014
976,1.060102791
978,1.048652005
980,1.037703543
982,1.02684295
984,1.016353586
986,1.005880284
988,0.995628182
990,0.985084571
992,0.974863312
994,0.964933335
996,0.954996185
998,0.94452638
1000,0.934795925
1002,0.924906423
1004,0.914829325
1006,0.905012865
1008,0.895749787
1010,0.886546628
1012,0.877447767
1014,0.868335333
1016,0.85931409
1018,0.85058286
1020,0.841797703
1022,0.833240007
1024,0.825119648
1026,0.81702507
1028,0.808872974
1030,0.800707038
1032,0.792582899
1034,0.784533827
1036,0.776635223
1038,0.768953054
1040,0.76139024
1042,0.754025441
1044,0.746473897
1046,0.739188101
1048,0.732054084
1050,0.724829971
1052,0.717804859
1054,0.711156395
1056,0.704379865
1058,0.697551688
1060,0.69120992
1062,0.684679755
1064,0.678330944
1066,0.672018353
1068,0.66605732
1070,0.659572566
1072,0.653451816
1074,0.647135513
1076,0.641255549
1078,0.634968686
1080,0.629173652
1082,0.623210263
1084,0.617532012
1086,0.611536001
1088,0.605852132
1090,0.599947383
1092,0.59462355
1094,0.588853533
1096,0.583496577
1098,0.578176469
1100,0.573007802
1102,0.567499351
1104,0.562419527
1106,0.556849554
1108,0.551464382
1110,0.546227757
1112,0.541031385
1114,0.53572964
1116,0.531018324
1118,0.526249413
1120,0.521394539
1122,0.516626451
1124,0.511985149
1126,0.507517032
1128,0.502918837
1130,0.498506116
1132,0.49397627
1134,0.489783296
1136,0.485163955
1138,0.480621582
1140,0.476304104
1142,0.472108517
1144,0.467629648
1146,0.463472813
1148,0.45959224
1150,0.455595604
1152,0.451599957
1154,0.447857431
1156,0.443974796
1158,0.440027662
1160,0.436190131
1162,0.432527073
1164,0.428886646
1166,0.425356256
1168,0.421928029
1170,0.418618157
1172,0.415031366
1174,0.411587081
1176,0.40801105
1178,0.404529357
1180,0.400979164
1182,0.397795812
1184,0.394415557
1186,0.391395943
1188,0.388110632
1190,0.384890396
1192,0.381686714
1194,0.378588504
1196,0.375349075
1198,0.372331856
1200,0.36918829
1202,0.366095306
1204,0.362946675
1206,0.359820022
1208,0.356719179
1210,0.353714264
1212,0.350692101
1214,0.347934376
1216,0.345004683
1218,0.342005956
1220,0.338984403
1222,0.336204059
1224,0.333095556
1226,0.330205753
1228,0.327378527
1230,0.324817148
1232,0.321934575
1234,0.319223949
1236,0.316541337
1238,0.313832837
1240,0.310909643
1242,0.308295502
1244,0.305708515
1246,0.303023589
1248,0.300473637
1250,0.298048045
1252,0.295436386
1254,0.292853444
1256,0.29046108
1258,0.288172192
1260,0.285709828
1262,0.283445022
1264,0.281101589
1266,0.278897037
1268,0.276412414
1270,0.274225698
1272,0.271944461
1274,0.269994853
1276,0.267647186
1278,0.265638858
1280,0.263583033
1282,0.261427881
1284,0.259100602
1286,0.257123484
1288,0.25491888
1290,0.252848331
1292,0.250736718
1294,0.248809455
1296,0.246851269
1298,0.24481652
1300,0.242726896
1302,0.240953245
1304,0.238766434
1306,0.236651727
1308,0.234812504
1310,0.232977331
1312,0.230787038
1314,0.228853392
1316,0.226974297
1318,0.224872042
1320,0.222706357
1322,0.220666238
1324,0.218716583
1326,0.216756127
1328,0.214943228
1330,0.213198803
1332,0.211622443
1334,0.209847732
1336,0.208031216
1338,0.206368566
1340,0.204660472
1342,0.202930707
1344,0.201504255
1346,0.199926439
1348,0.198183109
1350,0.196271978
1352,0.19427722
1354,0.192219317
1356,0.190156571
1358,0.188342864
1360,0.186618639
1362,0.185147554
1364,0.183703651
1366,0.182442286
1368,0.181182826
1370,0.179972596
1372,0.178524591
1374,0.177069339
1376,0.175550061
1378,0.17403841
1380,0.172633025
1382,0.171271997
1384,0.170022844
1386,0.168612939
1388,0.166901703
1390,0.16537838
1392,0.164176457
1394,0.162957076
1396,0.161993395
1398,0.161172829
1400,0.160102836
1402,0.158906901
1404,0.157604633
1406,0.156325019
1408,0.155188351
1410,0.154062724
1412,0.152810649
1414,0.151708736
1416,0.15054841
1418,0.149292161
1420,0.148080214
1422,0.146865321
1424,0.145636534
1426,0.144423632
1428,0.14330151
1430,0.142187136
1432,0.141186406
1434,0.140126196
1436,0.13892905
1438,0.137609519
1440,0.136419078
1442,0.135318504
1444,0.1340819
1446,0.133188051
1448,0.132265876
1450,0.131138447
1452,0.130047895
1454,0.128989471
1456,0.127809739
1458,0.126633205
1460,0.125576049
1462,0.124378235
1464,0.123144027
1466,0.122104989
1468,0.121287771
1470,0.120491108
1472,0.119693688
1474,0.118963769
1476,0.118073859
1478,0.117025986
1480,0.115876659
1482,0.114608191
1484,0.113522467
1486,0.112436652
1488,0.111292129
1490,0.110516973
1492,0.109883563
1494,0.109229645
1496,0.108468387
1498,0.107936817
1500,0.107250023
1502,0.106369541
1504,0.105376564
1506,0.104298323
1508,0.10311729
1510,0.101737321
1512,0.10061926
1514,0.099510106
1516,0.098701414
1518,0.097880195
1520,0.09723858
1522,0.096548731
1524,0.095871254
1526,0.095160423
1528,0.094501749
1530,0.093718502
1532,0.093137432
1534,0.092644943
1536,0.091960353
1538,0.091290997
1540,0.090836259
1542,0.090103333
1544,0.0891954
1546,0.0884025
1548,0.087719924
1550,0.087068562
1552,0.086185802
1554,0.085574984
1556,0.08497335
1558,0.08427757
1560,0.083322184
1562,0.082765743
1564,0.082106632
1566,0.081526348
1568,0.081026178
1570,0.080700142
1572,0.080245354
1574,0.079877649
1576,0.079501426
1578,0.078988011
1580,0.078430122
1582,0.077765767
1584,0.077165415
1586,0.076615953
1588,0.076176355
1590,0.075673625
1592,0.07547924
1594,0.075182711
1596,0.074659005
1598,0.074055137
1600,0.073507721
1602,0.072880287
1604,0.072194527
1606,0.071781621
1608,0.071397574
1610,0.071135434
1612,0.070735937
1614,0.070431073
1616,0.06984027
1618,0.06918987
1620,0.068458598
1622,0.067757921
1624,0.066889672
1626,0.066197431
1628,0.065672225
1630,0.065242628
1632,0.064722287
1634,0.064284656
1636,0.063889848
1638,0.063305082
1640,0.062549184
1642,0.062098525
1644,0.061475372
1646,0.060837124
1648,0.061582974
1650,0.062325241
1652,0.062971722
1654,0.063762073
1656,0.064361367
1658,0.063547739
1660,0.062838415
1662,0.062060272
1664,0.061316826
1666,0.06075225
1668,0.060223395
1670,0.059783881
1672,0.059336126
1674,0.058825104
1676,0.058272085
1678,0.057782856
1680,0.05709532
1682,0.05636473
1684,0.055594012
1686,0.054882996
1688,0.054249775
1690,0.053650694
1692,0.053270705
1694,0.052983374
1696,0.052715755
1698,0.052228376
1700,0.051720293
1702,0.051090868
1704,0.050440962
1706,0.049651972
1708,0.04906316
1710,0.048603004
1712,0.048255964
1714,0.048109665
1716,0.047929962
1718,0.047849177
1720,0.047676492
1722,0.047349324
1724,0.046963849
1726,0.046450622
1728,0.045822385
1730,0.045259875
1732,0.04470052
1734,0.044022302
1736,0.04371181
1738,0.043362644
1740,0.043071785
1742,0.042722887
1744,0.042418413
1746,0.04200755
1748,0.041674305
1750,0.041175378
1752,0.040836941
1754,0.040636706
1756,0.040337135
1758,0.040262604
1760,0.040061127
1762,0.039843146
1764,0.039508007
1766,0.039360478
1768,0.03888498
1770,0.038759604
1772,0.038486872
1774,0.038240389
1776,0.037854974
1778,0.037541269
1780,0.037405091
1782,0.037358328
1784,0.037334948
1786,0.037461485
1788,0.037512381
1790,0.03721118
1792,0.036908713
1794,0.03641263
1796,0.035833095
1798,0.035274542
1800,0.034810967
1802,0.034438099
1804,0.034106496
1806,0.033858566
1808,0.034055808
1810,0.034242136
1812,0.034470992
1814,0.035138734
1816,0.035786421
1818,0.036306855
1820,0.036850981
1822,0.037136928
1824,0.037105304
1826,0.036694303
1828,0.035860552
1830,0.034953578
1832,0.033950333
1834,0.033001651
1836,0.032342454
1838,0.031672849
1840,0.031198986
1842,0.030885045
1844,0.030458004
1846,0.030192066
1848,0.030010732
1850,0.029943934
1852,0.029922124
1854,0.029918035
1856,0.029860786
1858,0.029811718
1860,0.02927353
1862,0.028682604
1864,0.027953375
1866,0.027167719
1868,0.026771095
1870,0.026623088
1872,0.026655675
1874,0.026780601
1876,0.026961234
1878,0.026939501
1880,0.027144623
1882,0.027400076
1884,0.028025453
1886,0.028298863
1888,0.028483907
1890,0.028323352
1892,0.027817395
1894,0.026883815
1896,0.026357014
1898,0.025814269
1900,0.025212236
1902,0.024979133
1904,0.024893768
1906,0.024743385
1908,0.024606574
1910,0.024668881
1912,0.02441968
1914,0.024146186
1916,0.023910674
1918,0.023799709
1920,0.02359135
1922,0.02352236
1924,0.023516949
1926,0.023331652
1928,0.023145043
1930,0.023049051
1932,0.022923331
1934,0.022754383
1936,0.022420642
1938,0.022046524
1940,0.02169417
1942,0.021386488
1944,0.021069479
1946,0.020879331
1948,0.020675746
1950,0.020451994
1952,0.020263335
1954,0.020024876
1956,0.01988749
1958,0.019678761
1960,0.019414895
1962,0.01922647
1964,0.019058269
1966,0.018848403
1968,0.018740799
1970,0.018595557
1972,0.018354886
1974,0.018041716
1976,0.018030965
1978,0.01802559
1980,0.018188206
1982,0.018223152
1984,0.018291705
1986,0.018133101
1988,0.017912718
1990,0.017720603
1992,0.017622547
1994,0.01741707
1996,0.01713244
1998,0.016898902
2000,0.016615791
2002,0.016280476
2004,0.016134321
2006,0.016028408
2008,0.015878276
2010,0.015619629
2012,0.015482968
2014,0.015515121
2016,0.015499045
2018,0.015441438
2020,0.015417325
2022,0.015414646
2024,0.015224444
2026,0.015240516
2028,0.015217748
2030,0.01508383
2032,0.014916464
2034,0.014791965
2036,0.01455239
2038,0.01433429
2040,0.014295493
2042,0.014316898
2044,0.013978495
2046,0.013780599
2048,0.01382472
2050,0.013950412
2052,0.014009253
2054,0.014395834
2056,0.014660793
2058,0.014874962
2060,0.014745115
2062,0.014777241
2064,0.01480669
2066,0.014941901
2068,0.01473173
2070,0.014781256
2072,0.014953951
2074,0.014765193
2076,0.014809367
2078,0.014787949
2080,0.014698268
2082,0.014355696
2084,0.014512245
2086,0.014167074
2088,0.01412561
2090,0.014171087
2092,0.013828731
2094,0.013680332
2096,0.013473152
2098,0.013286065
2100,0.0128399
2102,0.012861268
2104,0.012651621
2106,0.012547485
2108,0.012436687
2110,0.012630259
2112,0.012558165
2114,0.012379292
2116,0.012240492
2118,0.012080367
2120,0.011677521
2122,0.011177569
2124,0.010905721
2126,0.010523419
2128,0.010314359
2130,0.010311696
2132,0.010322348
2134,0.01001218
2136,0.009909704
2138,0.009715433
2140,0.009350965
2142,0.009155494
2144,0.009232613
2146,0.009171449
2148,0.009144858
2150,0.009354954
2152,0.009471993
2154,0.009296441
2156,0.009396182
2158,0.009114279
2160,0.008589288
2162,0.008372743
2164,0.008338207
2166,0.00795708
2168,0.007752645
2170,0.007845564
2172,0.007772556
2174,0.007479258
2176,0.007686281
2178,0.008089857
2180,0.007945132
2182,0.007947787
2184,0.008305001
2186,0.008302344
2188,0.008164222
2190,0.008210703
2192,0.008311642
2194,0.008052678
2196,0.007907958
2198,0.007748663
2200,0.007727426
2202,0.007410262
2204,0.007432818
2206,0.007749991
2208,0.008108448
2210,0.008358131
2212,0.008468388
2214,0.008973363
2216,0.008970704
2218,0.008849748
2220,0.008864368
2222,0.008844432
2224,0.008444475
2226,0.008405952
2228,0.008322268
2230,0.007980979
2232,0.007669027
2234,0.007070673
2236,0.006224953
2238,0.005350973
2240,0.004640547
2242,0.00423335
2244,0.003868628
2246,0.00323207
2248,0.002690981
2250,0.002109372
2252,0.001276573
2254,0.000814412
2256,0.000730171
2258,0.000605141
2260,0.000946055
2262,0.00152817
2264,0.002143651
2266,0.002478601
2268,0.003148904
2270,0.003430117
2272,0.003795967
2274,0.003714066
2276,0.003984899
2278,0.004056255
2280,0.004262429
2282,0.004388008
2284,0.00466435
2286,0.004752957
2288,0.004706669
2290,0.004637902
2292,0.004376111
2294,0.004128939
2296,0.003834279
2298,0.004057576
2300,0.004337774
2302,0.004471298
2304,0.004364213
2306,0.004493774
2308,0.004232028
2310,0.003799931
2312,0.003724634
2314,0.003551609
2316,0.003637456
2318,0.003657269
2320,0.00346577
2322,0.00323735
2324,0.003427476
2326,0.003389183
2328,0.002789934
2330,0.002597316
2332,0.002433757
2334,0.002200346
2336,0.001499186
2338,0.001511043
2340,0.001520265
2342,0.001798293
2344,0.002085642
2346,0.002588082
2348,0.003206987
2350,0.00364274
2352,0.003500105
2354,0.003637456
2356,0.003538402
2358,0.003086865
2360,0.002883621
2362,0.003163424
2364,0.002880982
2366,0.003113264
2368,0.003139664
2370,0.003072346
2372,0.002981277
2374,0.00271209
2376,0.002101462
2378,0.002092234
2380,0.002108054
2382,0.001779843
2384,0.001628303
2386,0.001728448
2388,0.001412241
2390,0.001031635
2392,0.001068503
2394,0.001383262
2396,0.001312134
2398,0.001499186
2400,0.001872098
2402,0.001984136
2404,0.002208257
2406,0.002502342
2408,0.002272868
2410,0.002263637
2412,0.001920865
2414,0.001521582
2416,0.001583505
2418,0.001856282
2420,0.001906367
2422,0.001708681
2424,0.001626985
2426,0.001258134
2428,0.0013938
2430,0.000994769
2432,0.001292378
2434,0.001401703
2436,0.001771936
2438,0.001785114
2440,0.001919547
2442,0.002113328
2444,0.002177931
2446,0.002076414
2448,0.001762711
2450,0.002067185
2452,0.001882642
2454,0.001675738
2456,0.001453078
2458,0.001362186
2460,0.001445174
2462,0.001416193
2464,0.001555837
2466,0.00165202
2468,0.001928774
2470,0.00121599
2472,0.00080783
2474,0.00054066
2476,0.000235427
2478,0
2480,5.12884E-05
2482,0.000519605
2484,0.000361716
2486,0.000535396
2488,0.000868383
2490,0.001022418
2492,0.000647254
2494,0.000598561
2496,0.0007973
2498,0.001105372
2500,0.002114646
2502,0.002427163
2504,0.002640849
2506,0.003279597
2508,0.003777473
2510,0.003862022
2512,0.003723313
2514,0.003510669
2516,0.00334429
2518,0.003449924
2520,0.003333728
2522,0.003220188
2524,0.002824241
2526,0.002994475
2528,0.003435399
2530,0.003962436
2532,0.004411804
2534,0.004776764
2536,0.005178933
2538,0.005622338
2540,0.006150762
2542,0.006928776
2544,0.006755084
2546,0.006353479
2548,0.005766661
2550,0.00517761
2552,0.004998991
2554,0.004947398
2556,0.004501707
2558,0.004352315
2560,0.003661231
2562,0.003802573
2564,0.003758979
2566,0.003864665
2568,0.003550288
2570,0.00337862
2572,0.003101384
2574,0.003127784
2576,0.002701535
2578,0.002733199
2580,0.002234628
2582,0.002286054
2584,0.002702855
2586,0.00303011
2588,0.002510256
2590,0.002019727
2592,0.001936683
2594,0.002069822
2596,0.002067185
2598,0.002383641
2600,0.001828605
2602,0.001196236
2604,0.001161996
2606,0.00207905
2608,0.002743754
2610,0.002680426
2612,0.002050047
2614,0.001632256
2616,0.001775889
2618,0.002304515
2620,0.002844034
2622,0.002861188
2624,0.002333527
2626,0.002067185
2628,0.002098825
2630,0.002609188
2632,0.003012952
2634,0.002787295
2636,0.002643487
2638,0.001955136
2640,0.001621715
2642,0.001511043
2644,0.001425414
2646,0.001177799
2648,0.000921042
2650,0.000726222
2652,0.000818361
2654,0.00096712
2656,0.000894712
2658,0.001098788
2660,0.000764393
2662,0.000864434
2664,0.000457762
2666,0.000615669
2668,0.000588033
2670,0.000320933
2672,0.0003012
2674,0.000645938
2676,0.001316086
2678,0.001167264
2680,0.000620933
2682,0.00126867
2684,0.001471521
2686,0.001963045
2688,0.002231991
2690,0.001941955
2692,0.001206771
2694,0.000778872
2696,0.001059286
2698,0.001420145
2700,0.001513678
2702,0.001159362
2704,0.000745965
2706,0.000468288
2708,0.000151244
2710,0.001154095
2712,0.000632778
2714,0.001160679
2716,0.001131708
2718,0.001372724
2720,0.001828605
2722,0.001649385
2724,0.001350331
2726,0.001757439
2728,0.002214849
2730,0.002614465
2732,0.002661957
2734,0.002660637
2736,0.002291329
2738,0.002177931
2740,0.001934046
2742,0.002247814
2744,0.001760075
2746,0.001172531
2748,0.000443289
2750,-0.000210381
2752,-0.000552137
2754,-0.000893752
2756,-0.000613901
2758,-0.000274799
2760,0.000143352
2762,0.001637526
2764,0.002114646
2766,0.003023511
2768,0.003453885
2770,0.003575381
2772,0.00420295
2774,0.004357603
2776,0.004823056
2778,0.004304727
2780,0.004061541
2782,0.003538402
2784,0.00348954
2786,0.002829519
2788,0.002986556
2790,0.002981277
2792,0.002495747
2794,0.002501023
2796,0.00267383
2798,0.002345396
2800,0.002234628
2802,0.002388916
2804,0.002940366
2806,0.003209627
2808,0.003468411
2810,0.003467091
2812,0.002908694
2814,0.003176625
2816,0.003423514
2818,0.003884482
2820,0.003781436
2822,0.00427036
2824,0.004191055
2826,0.003843527
2828,0.003406348
2830,0.004468654
2832,0.004774119
2834,0.004513607
2836,0.003990184
2838,0.004177838
2840,0.004165944
2842,0.003691611
2844,0.004308693
2846,0.005086311
2848,0.004426347
2850,0.004578397
2852,0.004198985
2854,0.004218811
2856,0.004114401
2858,0.003580664
2860,0.004869352
2862,0.004064184
2864,0.004201629
2866,0.004458077
2868,0.003678402
2870,0.003539723
2872,0.003732559
2874,0.003575381
2876,0.004549307
2878,0.004142155
2880,0.004842897
2882,0.004484519
2884,0.003951866
2886,0.003929404
2888,0.003785399
2890,0.00341163
2892,0.003403708
2894,0.002301878
2896,0.003133064
2898,0.002322977
2900,0.002614465
2902,0.002457497
2904,0.001994681
2906,0.002533999
2908,0.00263821
2910,0.003389183
2912,0.004041719
2914,0.003107984
2916,0.003858059
2918,0.003711424
2920,0.004678897
2922,0.00588717
2924,0.008038072
2926,0.009885751
2928,0.011286866
2930,0.012384631
2932,0.013773914
2934,0.015548616
2936,0.01646287
2938,0.0174963
2940,0.019172642
2942,0.018162669
2944,0.016948557
2946,0.016201361
2948,0.015228462
2950,0.015519141
2952,0.013609484
2954,0.013831406
2956,0.01351993
2958,0.01314177
2960,0.012076364
2962,0.012777136
2964,0.012504766
2966,0.012460714
2968,0.011937614
2970,0.011644181
2972,0.010885736
2974,0.010371612
2976,0.010406232
2978,0.011665518
2980,0.011186899
2982,0.009392192
2984,0.009787282
2986,0.010167915
2988,0.009722086
2990,0.010647282
2992,0.010145285
2994,0.008641108
2996,0.00860789
2998,0.008460417
3000,0.009824539
3002,0.009667538
3004,0.008659711
3006,0.009861798
3008,0.008585302
3010,0.009014571
3012,0.009360274
3014,0.008035416
3016,0.007443433
3018,0.005811685
3020,0.004989731
3022,0.006573476
3024,0.004477908
3026,0.005918956
3028,0.007013646
3030,0.007511105
3032,0.009296441
3034,0.009420122
3036,0.010748517
3038,0.010895062
3040,0.007556222
3042,0.009158153
3044,0.005789173
3046,0.001999954
3048,-0.001909888
3050,-0.006973366
3052,-0.006762077
3054,-0.005438345
3056,-0.007913084
3058,-0.005167857
3060,-0.006011698
3062,-0.004362407
3064,-0.003897874
3066,-0.001912512
3068,0.003183225
3070,0.002684384
3072,0.000988186
3074,0.00071306
3076,-0.001153812
3078,2.1041E-05
3080,-0.001488618
3082,-0.000699311
3084,-0.001782611
3086,-0.005512812
3088,-0.006638148
3090,-0.008422252
3092,-0.006488104
3094,-0.008475625
3096,-0.007841437
3098,-0.005157402
3100,-0.002846156
3102,0.000466972
3104,0.003225469
3106,0.004029826
3108,0.00323735
3110,0.000393292
3112,0.002001272
3114,-0.000352358
3116,-0.003245782
3118,-0.000491682
3120,0.002760907
3122,0.008427206
3124,0.014410552
3126,0.020364397
3128,0.028248527
3130,0.036201094
3132,0.039343935
3134,0.047402219
3136,0.049213811
3138,0.04828244
3140,0.042540189
3142,0.042152782
3144,0.041446227
3146,0.036910087
3148,0.030093895
3150,0.027756212
3152,0.022681408
3154,0.017456013
3156,0.014476116
3158,0.014828108
3160,0.009720755
3162,0.012079032
3164,0.013888901
3166,0.007846892
3168,0.003678402
3170,0.004249211
3172,0.015993553
3174,0.012898663
3176,0.018319935
3178,0.017117674
3180,0.012311224
3182,0.021509277
3184,0.028624079
3186,0.033707926
3188,0.040406151
3190,0.031765742
3192,0.034849359
3194,0.02877108
3196,0.03098331
3198,0.031574504
3200,0.021687421
