Wavelength nm.,alpha
200,8.60468539
202,#NUM!
204,#NUM!
206,#NUM!
208,#NUM!
210,#NUM!
212,#NUM!
214,#NUM!
216,#NUM!
218,#NUM!
220,#NUM!
222,#NUM!
224,#NUM!
226,9.40891947
228,#NUM!
230,#NUM!
232,#NUM!
234,#NUM!
236,#NUM!
238,#NUM!
240,#NUM!
242,#NUM!
244,#NUM!
246,#NUM!
248,#NUM!
250,#NUM!
252,#NUM!
254,#NUM!
256,#NUM!
258,#NUM!
260,#NUM!
262,#NUM!
264,#NUM!
266,#NUM!
268,#NUM!
270,#NUM!
272,#NUM!
274,#NUM!
276,#NUM!
278,#NUM!
280,#NUM!
282,#NUM!
284,#NUM!
286,9.40891947
288,8.459390901
290,8.60468539
292,8.3952567
294,8.493409229
296,10.22627718
298,#NUM!
300,#NUM!
302,#NUM!
304,#NUM!
306,#NUM!
308,#NUM!
310,#NUM!
312,#NUM!
314,#DIV/0!
316,9.143541361
318,#NUM!
320,#NUM!
322,9.64865453
324,7.88176825
326,7.98829606
328,#NUM!
330,#NUM!
332,#NUM!
334,#NUM!
336,#NUM!
338,#NUM!
340,#NUM!
342,#NUM!
344,#NUM!
346,#NUM!
348,#NUM!
350,#NUM!
352,#NUM!
354,#NUM!
356,#NUM!
358,#NUM!
360,#NUM!
362,#NUM!
364,#NUM!
366,#NUM!
368,#NUM!
370,#NUM!
372,#NUM!
374,#NUM!
376,#NUM!
378,#NUM!
380,#NUM!
382,#NUM!
384,#NUM!
386,#NUM!
388,#NUM!
390,#NUM!
392,#NUM!
394,#NUM!
396,#NUM!
398,#NUM!
400,#NUM!
402,#NUM!
404,#NUM!
406,#NUM!
408,#NUM!
410,#NUM!
412,#NUM!
414,#NUM!
416,#NUM!
418,#NUM!
420,#NUM!
422,#NUM!
424,#NUM!
426,#NUM!
428,#NUM!
430,#NUM!
432,#NUM!
434,#NUM!
436,#NUM!
438,#NUM!
440,#NUM!
442,#NUM!
444,#NUM!
446,#NUM!
448,#NUM!
450,#NUM!
452,#NUM!
454,#NUM!
456,#NUM!
458,#NUM!
460,#NUM!
462,#NUM!
464,#NUM!
466,#NUM!
468,#NUM!
470,#NUM!
472,#NUM!
474,#NUM!
476,#NUM!
478,#NUM!
480,#NUM!
482,#NUM!
484,#NUM!
486,#NUM!
488,#NUM!
490,#NUM!
492,#NUM!
494,#NUM!
496,#NUM!
498,#NUM!
500,#NUM!
502,#NUM!
504,#NUM!
506,#NUM!
508,#NUM!
510,#NUM!
512,#NUM!
514,#NUM!
516,#NUM!
518,#NUM!
520,#NUM!
522,#NUM!
524,#NUM!
526,#NUM!
528,#NUM!
530,#NUM!
532,#NUM!
534,#NUM!
536,#NUM!
538,#NUM!
540,#NUM!
542,#NUM!
544,#NUM!
546,#NUM!
548,#NUM!
550,7.511196732
552,8.027062739
554,8.110465622
556,#NUM!
558,#NUM!
560,#NUM!
562,#NUM!
564,#NUM!
566,#NUM!
568,#NUM!
570,#NUM!
572,#NUM!
574,#NUM!
576,#NUM!
578,#NUM!
580,#NUM!
582,#NUM!
584,#NUM!
586,#NUM!
588,#NUM!
590,10.22627718
592,8.203153651
594,8.203153651
596,8.36495033
598,7.951252924
600,7.689175149
602,7.716059201
604,7.849084323
606,7.637876905
608,7.279513265
610,7.577898989
612,8.335707563
614,8.88507892
616,8.459390901
618,#NUM!
620,#NUM!
622,#NUM!
624,#NUM!
626,9.07103188
628,#NUM!
630,#NUM!
632,#NUM!
634,#NUM!
636,#NUM!
638,#NUM!
640,#NUM!
642,#NUM!
644,8.110465622
646,#NUM!
648,8.280131418
650,#NUM!
652,#NUM!
654,#NUM!
656,7.613365334
658,8.22803112
660,7.98829606
662,#NUM!
664,#NUM!
666,11.14178742
668,9.143541361
670,#NUM!
672,#NUM!
674,#NUM!
676,#NUM!
678,#NUM!
680,11.14178742
682,#NUM!
684,8.780776301
686,8.22803112
688,7.65040847
690,7.3041456
692,7.054058439
694,6.876792578
696,6.63955627
698,6.419765181
700,6.180751309
702,5.979782929
704,5.815189827
706,5.610739062
708,5.477767656
710,5.31810977
712,5.167329074
714,5.033116412
716,4.892268013
718,4.766646837
720,4.626764139
722,4.496343385
724,4.38334842
726,4.286755397
728,4.189619354
730,4.09622135
732,4.011442501
734,3.926354815
736,3.84219432
738,3.761949094
740,3.686149609
742,3.612294447
744,3.543357898
746,3.474458289
748,3.410588992
750,3.348587476
752,3.28798387
754,3.23029701
756,3.174524493
758,3.11916993
760,3.067212794
762,3.017235867
764,2.969306878
766,2.922682471
768,2.879311288
770,2.836010984
772,2.794775445
774,2.753109172
776,2.714136541
778,2.674807997
780,2.637745245
782,2.601286656
784,2.566950905
786,2.532750249
788,2.500812958
790,2.468342317
792,2.437768269
794,2.407177025
796,2.377827064
798,2.349410304
800,2.322057311
802,2.294531645
804,2.269034019
806,2.243909036
808,2.219388832
810,2.195895998
812,2.173647636
814,2.151375759
816,2.130739865
818,2.109097498
820,2.088242093
822,2.072075683
824,2.05240585
826,2.033398556
828,2.016129919
830,1.999512783
832,1.983473545
834,1.968952068
836,1.954176971
838,1.939859379
840,1.926164138
842,1.912961562
844,1.899303835
846,1.886692045
848,1.875267742
850,1.863863964
852,1.852974675
854,1.842760006
856,1.833114933
858,1.823313369
860,1.814107467
862,1.805092942
864,1.796826395
866,1.788463027
868,1.780281902
870,1.772540415
872,1.765281235
874,1.757902409
876,1.750641501
878,1.743896656
880,1.737498934
882,1.731149955
884,1.724807753
886,1.719076259
888,1.713465253
890,1.707922074
892,1.702666402
894,1.697693055
896,1.692600458
898,1.687243162
900,1.682468501
902,1.677350977
904,1.672303398
906,1.667411271
908,1.663064362
910,1.658492492
912,1.654466398
914,1.651119825
916,1.647655091
918,1.644419933
920,1.641383767
922,1.638061355
924,1.634585632
926,1.631695622
928,1.628494169
930,1.625259236
932,1.622492489
934,1.619644044
936,1.616832464
938,1.614373318
940,1.611894405
942,1.609252352
944,1.606761766
946,1.604733592
948,1.60244332
950,1.600177075
952,1.598164845
954,1.596095637
956,1.593467907
958,1.591357623
960,1.589165078
962,1.586925874
964,1.584997638
966,1.583126025
968,1.581111127
970,1.579516562
972,1.577700399
974,1.575845085
976,1.57393369
978,1.572078153
980,1.57008976
982,1.56822567
984,1.56626348
986,1.564705553
988,1.563286375
990,1.561471313
992,1.559888485
994,1.558274898
996,1.556841343
998,1.555334556
1000,1.553712965
1002,1.55236265
1004,1.550880662
1006,1.549167522
1008,1.547232989
1010,1.546067767
1012,1.544538806
1014,1.542855211
1016,1.540902195
1018,1.539448683
1020,1.53761065
1022,1.535850601
1024,1.534487885
1026,1.53336491
1028,1.531687368
1030,1.530478359
1032,1.529328163
1034,1.528073732
1036,1.52641492
1038,1.525335214
1040,1.523779006
1042,1.522072142
1044,1.520457483
1046,1.51900696
1048,1.517350009
1050,1.515592099
1052,1.514286104
1054,1.512902221
1056,1.511432863
1058,1.509862558
1060,1.508676828
1062,1.506849812
1064,1.505319792
1066,1.503776765
1068,1.502481248
1070,1.500793779
1072,1.499408511
1074,1.497727246
1076,1.496378404
1078,1.494570306
1080,1.493132891
1082,1.49142528
1084,1.489845545
1086,1.487710275
1088,1.485928605
1090,1.484081244
1092,1.48263867
1094,1.480837033
1096,1.479292578
1098,1.477597743
1100,1.47582225
1102,1.474050532
1104,1.472244512
1106,1.470404419
1108,1.468697227
1110,1.467023783
1112,1.465255556
1114,1.46329525
1116,1.461399651
1118,1.459433392
1120,1.457606382
1122,1.455574425
1124,1.453703733
1126,1.451829803
1128,1.449997135
1130,1.447820981
1132,1.445562023
1134,1.443603317
1136,1.441759277
1138,1.43963378
1140,1.437849622
1142,1.435828782
1144,1.433638393
1146,1.431410257
1148,1.429224207
1150,1.426813182
1152,1.424746991
1154,1.422650048
1156,1.420522598
1158,1.418457653
1160,1.416212748
1162,1.413995168
1164,1.411910912
1166,1.40950703
1168,1.407257911
1170,1.405295777
1172,1.40338731
1174,1.401077742
1176,1.398816378
1178,1.396588938
1180,1.394097096
1182,1.391460674
1184,1.38897032
1186,1.386748399
1188,1.384203575
1190,1.381618703
1192,1.379089471
1194,1.376819029
1196,1.374182486
1198,1.371736413
1200,1.369270589
1202,1.366724848
1204,1.363772409
1206,1.361316677
1208,1.358230599
1210,1.355308049
1212,1.352375936
1214,1.349900928
1216,1.346935349
1218,1.344541726
1220,1.341614647
1222,1.338879412
1224,1.335687763
1226,1.332501854
1228,1.329353729
1230,1.326613636
1232,1.32340486
1234,1.320525585
1236,1.317517124
1238,1.314456492
1240,1.31114351
1242,1.308049896
1244,1.304581698
1246,1.301233264
1248,1.297737694
1250,1.294656452
1252,1.291188304
1254,1.287996881
1256,1.284726455
1258,1.281456705
1260,1.277874133
1262,1.274733199
1264,1.271089656
1266,1.267682287
1268,1.264128672
1270,1.260590146
1272,1.256943116
1274,1.253674965
1276,1.250349587
1278,1.246932862
1280,1.24349538
1282,1.24012387
1284,1.236519235
1286,1.232861585
1288,1.229174427
1290,1.225469545
1292,1.221713431
1294,1.218047109
1296,1.21422369
1298,1.210512252
1300,1.206612474
1302,1.202516051
1304,1.198406785
1306,1.194639491
1308,1.190666512
1310,1.186939376
1312,1.182852233
1314,1.178902804
1316,1.174710964
1318,1.170402318
1320,1.166042032
1322,1.161861777
1324,1.157524963
1326,1.153049702
1328,1.148944284
1330,1.144699697
1332,1.14059932
1334,1.136554636
1336,1.132413033
1338,1.1281559
1340,1.123775081
1342,1.11938228
1344,1.114977807
1346,1.110522513
1348,1.106184121
1350,1.101590046
1352,1.097084242
1354,1.092419274
1356,1.087895456
1358,1.083076288
1360,1.078602771
1362,1.073832172
1364,1.069384403
1366,1.064960248
1368,1.060740617
1370,1.056477536
1372,1.052286737
1374,1.047952195
1376,1.043571815
1378,1.039182651
1380,1.034893044
1382,1.03059404
1384,1.026000666
1386,1.021467926
1388,1.016717309
1390,1.012019911
1392,1.007501364
1394,1.003124231
1396,0.99866647
1398,0.994476955
1400,0.990069358
1402,0.98566797
1404,0.981125017
1406,0.976459726
1408,0.971870515
1410,0.967252452
1412,0.962486406
1414,0.958071864
1416,0.95363156
1418,0.949064446
1420,0.94463942
1422,0.940068936
1424,0.935327528
1426,0.930728199
1428,0.925913028
1430,0.921098017
1432,0.916545086
1434,0.911915855
1436,0.907331521
1438,0.90262623
1440,0.897912967
1442,0.893135025
1444,0.888180353
1446,0.883221175
1448,0.878701976
1450,0.873787584
1452,0.869108689
1454,0.864510982
1456,0.860037081
1458,0.855100543
1460,0.850575658
1462,0.845773649
1464,0.841241871
1466,0.836347674
1468,0.831704368
1470,0.826848161
1472,0.822037532
1474,0.816970138
1476,0.812319471
1478,0.807358637
1480,0.802679349
1482,0.797700862
1484,0.793001217
1486,0.788113539
1488,0.783224392
1490,0.778463081
1492,0.773873684
1494,0.768978749
1496,0.764301169
1498,0.759801847
1500,0.755107745
1502,0.750241476
1504,0.745498926
1506,0.74035612
1508,0.735424057
1510,0.730439748
1512,0.725758525
1514,0.720902587
1516,0.716357455
1518,0.711681114
1520,0.707070375
1522,0.702300665
1524,0.697780463
1526,0.693078423
1528,0.68861378
1530,0.683948256
1532,0.679502732
1534,0.675110043
1536,0.670682203
1538,0.666133087
1540,0.661623058
1542,0.657277568
1544,0.6529831
1546,0.648716317
1548,0.644437441
1550,0.640340301
1552,0.636145973
1554,0.631842137
1556,0.627599089
1558,0.623490237
1560,0.619519181
1562,0.61536276
1564,0.611291982
1566,0.60743512
1568,0.603488668
1570,0.599307095
1572,0.595239402
1574,0.591080407
1576,0.586847354
1578,0.582559792
1580,0.578445215
1582,0.574441564
1584,0.57048801
1586,0.566563394
1588,0.56272362
1590,0.558845492
1592,0.55493722
1594,0.550996792
1596,0.54709999
1598,0.543303716
1600,0.539524657
1602,0.535878959
1604,0.532325525
1606,0.528681677
1608,0.524899817
1610,0.521152061
1612,0.517285551
1614,0.513309236
1616,0.509255925
1618,0.505410692
1620,0.50156887
1622,0.497574492
1624,0.49370973
1626,0.489968193
1628,0.486138466
1630,0.482344824
1632,0.478988933
1634,0.475411721
1636,0.471920843
1638,0.46826881
1640,0.464630441
1642,0.460754581
1644,0.457110525
1646,0.45346216
1648,0.450528566
1650,0.447865736
1652,0.445007216
1654,0.441963886
1656,0.439061609
1658,0.435462727
1660,0.431521171
1662,0.427804642
1664,0.424420622
1666,0.420849794
1668,0.417543223
1670,0.414298909
1672,0.411197144
1674,0.407920088
1676,0.404558626
1678,0.401349635
1680,0.398064857
1682,0.394548571
1684,0.391171861
1686,0.388140332
1688,0.384859626
1690,0.38152804
1692,0.378297791
1694,0.37504737
1696,0.371470237
1698,0.36801966
1700,0.364748546
1702,0.361594613
1704,0.358440571
1706,0.355406025
1708,0.352136316
1710,0.349075154
1712,0.346040961
1714,0.343000105
1716,0.340162035
1718,0.337489615
1720,0.334588582
1722,0.331593029
1724,0.328830152
1726,0.325718643
1728,0.322568897
1730,0.319703984
1732,0.317042981
1734,0.314130591
1736,0.31153267
1738,0.309323623
1740,0.306889135
1742,0.304332401
1744,0.302065691
1746,0.29963551
1748,0.296842661
1750,0.294227631
1752,0.291569097
1754,0.288917177
1756,0.286495629
1758,0.284181716
1760,0.281872386
1762,0.279436629
1764,0.276939048
1766,0.274624352
1768,0.27235575
1770,0.269915238
1772,0.267684513
1774,0.265334531
1776,0.263008993
1778,0.260807328
1780,0.258632755
1782,0.256483309
1784,0.254533585
1786,0.25222915
1788,0.250080331
1790,0.248059664
1792,0.246155745
1794,0.24401205
1796,0.241922547
1798,0.239794903
1800,0.237558491
1802,0.235269404
1804,0.233232659
1806,0.231243802
1808,0.229221998
1810,0.227546884
1812,0.226013319
1814,0.224552399
1816,0.223410337
1818,0.222164535
1820,0.220910419
1822,0.219463488
1824,0.217804477
1826,0.215848689
1828,0.213598216
1830,0.210995125
1832,0.208562195
1834,0.206176331
1836,0.204044848
1838,0.202147579
1840,0.200362153
1842,0.198590449
1844,0.197064715
1846,0.195148726
1848,0.193450408
1850,0.192097845
1852,0.190549604
1854,0.188860624
1856,0.187311865
1858,0.185554659
1860,0.183642219
1862,0.181638707
1864,0.179638387
1866,0.177860231
1868,0.176095503
1870,0.174528561
1872,0.173344074
1874,0.172014134
1876,0.170592121
1878,0.169253811
1880,0.167822176
1882,0.166419999
1884,0.165078853
1886,0.163914046
1888,0.162750866
1890,0.161151968
1892,0.159343481
1894,0.157672505
1896,0.155965657
1898,0.154375017
1900,0.152899925
1902,0.151436801
1904,0.15007592
1906,0.148370556
1908,0.146761753
1910,0.145561833
1912,0.144170293
1914,0.142623599
1916,0.141511322
1918,0.14030046
1920,0.138787048
1922,0.137480405
1924,0.136396418
1926,0.135225091
1928,0.133798756
1930,0.132615819
1932,0.131559464
1934,0.13001317
1936,0.128553219
1938,0.127242811
1940,0.125922354
1942,0.124573774
1944,0.123503419
1946,0.122241593
1948,0.121461634
1950,0.120480946
1952,0.119532943
1954,0.118658011
1956,0.117748037
1958,0.116577176
1960,0.115264536
1962,0.113942029
1964,0.112834589
1966,0.111648296
1968,0.110282506
1970,0.109282248
1972,0.108237268
1974,0.107094478
1976,0.106228069
1978,0.10539356
1980,0.104357865
1982,0.103597405
1984,0.102559524
1986,0.101427428
1988,0.100399582
1990,0.099578217
1992,0.098548255
1994,0.097643877
1996,0.096895361
1998,0.096131457
2000,0.09521803
2002,0.094385728
2004,0.093689623
2006,0.092586949
2008,0.091694822
2010,0.090705012
2012,0.089570064
2014,0.088799819
2016,0.088062093
2018,0.087249904
2020,0.086585712
2022,0.085870131
2024,0.084833919
2026,0.084220581
2028,0.083479706
2030,0.082828569
2032,0.082170761
2034,0.081438878
2036,0.080508449
2038,0.079527536
2040,0.078680726
2042,0.078231923
2044,0.077587727
2046,0.076949735
2048,0.076808501
2050,0.076486178
2052,0.075988675
2054,0.075863277
2056,0.07559402
2058,0.075005947
2060,0.074455272
2062,0.073848101
2064,0.073126328
2066,0.072517286
2068,0.071722936
2070,0.071126252
2072,0.070527164
2074,0.069747438
2076,0.069330279
2078,0.069091391
2080,0.068683036
2082,0.06826641
2084,0.067684895
2086,0.067099554
2088,0.066363878
2090,0.065295346
2092,0.064436165
2094,0.063815181
2096,0.062738689
2098,0.061991436
2100,0.061352667
2102,0.060483551
2104,0.059819379
2106,0.059349884
2108,0.058608454
2110,0.0581508
2112,0.057535875
2114,0.057023087
2116,0.056343572
2118,0.055799524
2120,0.05520718
2122,0.054483312
2124,0.053776724
2126,0.053061029
2128,0.052276691
2130,0.051675772
2132,0.051451577
2134,0.050885821
2136,0.050356379
2138,0.049853513
2140,0.049114961
2142,0.048447376
2144,0.048072439
2146,0.047610892
2148,0.047302417
2150,0.046842672
2152,0.046244283
2154,0.045583115
2156,0.045124317
2158,0.044709693
2160,0.04449697
2162,0.044159468
2164,0.043828959
2166,0.043505434
2168,0.042921762
2170,0.042268698
2172,0.041993661
2174,0.041811721
2176,0.041480774
2178,0.040934043
2180,0.040718183
2182,0.04042727
2184,0.03998222
2186,0.039600158
2188,0.039420104
2190,0.039058748
2192,0.038568102
2194,0.037877597
2196,0.037635307
2198,0.037560457
2200,0.03734955
2202,0.037063891
2204,0.037137337
2206,0.036613836
2208,0.036359683
2210,0.035983353
2212,0.0358163
2214,0.035300414
2216,0.034970686
2218,0.034643801
2220,0.034258756
2222,0.033665268
2224,0.033559622
2226,0.033439095
2228,0.032812361
2230,0.032522842
2232,0.032191506
2234,0.031272571
2236,0.030285845
2238,0.029075295
2240,0.028204193
2242,0.027242597
2244,0.026342527
2246,0.025537318
2248,0.025397828
2250,0.024652486
2252,0.023835521
2254,0.023804734
2256,0.023736469
2258,0.02341396
2260,0.023626721
2262,0.024242564
2264,0.024176942
2266,0.024229172
2268,0.024427406
2270,0.024333641
2272,0.024218458
2274,0.024235868
2276,0.024126055
2278,0.023759223
2280,0.023404594
2282,0.023274824
2284,0.023245395
2286,0.023186539
2288,0.023237369
2290,0.023355092
2292,0.023091575
2294,0.022547417
2296,0.022453863
2298,0.02202632
2300,0.021748536
2302,0.021536253
2304,0.021482857
2306,0.021333366
2308,0.021174562
2310,0.020793022
2312,0.020822365
2314,0.020552981
2316,0.019919872
2318,0.019590845
2320,0.019363134
2322,0.018780156
2324,0.018593902
2326,0.018535374
2328,0.018757537
2330,0.018769512
2332,0.018522072
2334,0.018284015
2336,0.018052672
2338,0.017430757
2340,0.017203635
2342,0.016922143
2344,0.016533255
2346,0.01589391
2348,0.015720231
2350,0.015192786
2352,0.014959651
2354,0.014836486
2356,0.014904026
2358,0.01450946
2360,0.014598155
2362,0.014592859
2364,0.014531964
2366,0.014885485
2368,0.015305403
2370,0.015024551
2372,0.01497422
2374,0.014697451
2376,0.014145513
2378,0.013956323
2380,0.014042313
2382,0.013514607
2384,0.013448502
2386,0.013009698
2388,0.012432467
2390,0.011825287
2392,0.012127501
2394,0.012200102
2396,0.012403418
2398,0.012645084
2400,0.012762641
2402,0.012293832
2404,0.012098463
2406,0.011801536
2408,0.011797578
2410,0.01159573
2412,0.011983639
2414,0.011152626
2416,0.011376786
2418,0.010763785
2420,0.01052925
2422,0.009944519
2424,0.010232883
2426,0.009718111
2428,0.009406244
2430,0.009087917
2432,0.009154992
2434,0.008930114
2436,0.008824929
2438,0.00927732
2440,0.009436504
2442,0.008885409
2444,0.009011642
2446,0.009102384
2448,0.008571224
2450,0.008584367
2452,0.008806523
2454,0.008864372
2456,0.008652717
2458,0.009107645
2460,0.009350988
2462,0.009466766
2464,0.008898557
2466,0.008978767
2468,0.008530481
2470,0.007507293
2472,0.007138519
2474,0.007326167
2476,0.006869586
2478,0.006672862
2480,0.00670958
2482,0.006269066
2484,0.006058069
2486,0.006363442
2488,0.006585007
2490,0.006751546
2492,0.007095221
2494,0.006735809
2496,0.006689909
2498,0.006792203
2500,0.007230369
2502,0.007328791
2504,0.007700276
2506,0.007687147
2508,0.008064046
2510,0.008027268
2512,0.007831583
2514,0.007379975
2516,0.007160824
2518,0.006960095
2520,0.007067669
2522,0.007156888
2524,0.007463977
2526,0.007624128
2528,0.007876231
2530,0.008211174
2532,0.008529166
2534,0.008855168
2536,0.009265481
2538,0.009385194
2540,0.009236542
2542,0.009148416
2544,0.008815726
2546,0.008748678
2548,0.008272924
2550,0.008363585
2552,0.008328108
2554,0.007965536
2556,0.007478415
2558,0.007255301
2560,0.007318292
2562,0.007240867
2564,0.007008633
2566,0.007112277
2568,0.00695616
2570,0.006802695
2572,0.0067463
2574,0.006472251
2576,0.006107865
2578,0.005451586
2580,0.005796035
2582,0.005892978
2584,0.00572792
2586,0.005232941
2588,0.004434785
2590,0.004173261
2592,0.00424125
2594,0.004412553
2596,0.004318397
2598,0.003615182
2600,0.003006557
2602,0.002925614
2604,0.00314496
2606,0.00404253
2608,0.004174569
2610,0.003790277
2612,0.003395712
2614,0.002921698
2616,0.002930836
2618,0.003653072
2620,0.004012465
2622,0.00419418
2624,0.003598197
2626,0.003275551
2628,0.003493683
2630,0.003463637
2632,0.003697498
2634,0.003411387
2636,0.002485791
2638,0.001513
2640,0.000840795
2642,0.000569982
2644,0.00029275
2646,2.60181E-05
2648,0
2650,0.000193854
2652,0.000491879
2654,0.000361724
2656,0.000183445
2658,0.000240698
2660,0.000160024
2662,0.000365629
2664,0.000545249
2666,0.000175638
2668,0.000350011
2670,2.60181E-05
2672,0.000830378
2674,0.001572952
2676,0.001639425
2678,0.001815408
2680,0.001846698
2682,0.001630301
2684,0.002459696
2686,0.00240229
2688,0.002831627
2690,0.00229662
2692,0.001937967
2694,0.001747618
2696,0.001584682
2698,0.001786727
2700,0.002455781
2702,0.001187252
2704,0.000281038
2706,0.000584302
2708,0.000977537
2710,0.000971025
2712,0.001334474
2714,0.001369655
2716,0.001029635
2718,0.00096842
2720,0.001518213
2722,0.001609446
2724,0.000550456
2726,7.80534E-06
2728,-0.000290047
2730,-0.000453885
2732,-0.000364168
2734,-0.000257535
2736,-0.000495489
2738,-0.000122274
2740,0.000309668
2742,0.000193854
2744,-0.000212017
2746,-0.001098523
2748,-0.00127649
2750,-0.001942556
2752,-0.002879081
2754,-0.003376749
2756,-0.003946628
2758,-0.003836568
2760,-0.003323627
2762,-0.003168127
2764,-0.001829635
2766,-0.000942608
2768,-4.81313E-05
2770,0.000458037
2772,0.000478863
2774,0.001485632
2776,0.001492148
2778,0.00165637
2780,0.002200095
2782,0.002040983
2784,0.001419171
2786,0.000873351
2788,0.001636818
2790,0.001523426
2792,0.000499689
2794,0.000840795
2796,0.000364327
2798,-0.000200312
2800,-0.000312154
2802,-0.000165196
2804,2.7319E-05
2806,-0.001149189
2808,-0.000781465
2810,-0.00114789
2812,-0.001566093
2814,-0.001138796
2816,-0.00086204
2818,-0.001082932
2820,-0.001441433
2822,-0.001137497
2824,1.04071E-05
2826,0.000541344
2828,0.001311021
2830,0.001129933
2832,0.00073272
2834,0.001198976
2836,0.002133577
2838,0.002410117
2840,0.002153141
2842,0.002140098
2844,0.001399625
2846,0.001115604
2848,0.001118209
2850,0.001222426
2852,0.000469752
2854,-0.00062679
2856,-0.001141394
2858,-0.000656688
2860,-0.001582972
2862,-0.001301169
2864,-0.000808757
2866,-0.000716479
2868,-0.000577392
2870,1.04071E-05
2872,0.000426799
2874,0.000589509
2876,-7.54479E-05
2878,0.001266722
2880,0.000938466
2882,0.000766573
2884,0.000721002
2886,0.000167831
2888,-6.50417E-05
2890,-0.000349864
2892,-0.000440883
2894,-0.000509791
2896,-0.00088933
2898,-0.000353765
2900,-0.000550092
2902,-0.000847745
2904,-0.000343363
2906,-0.000266639
2908,-0.00013268
2910,-0.000115771
2912,0.000109281
2914,-0.000755471
2916,0.000399467
2918,0.00114296
2920,0.003612569
2922,0.004576042
2924,0.006139316
2926,0.007286796
2928,0.008618541
2930,0.010196009
2932,0.011684115
2934,0.010750607
2936,0.010501585
2938,0.009804981
2940,0.009939253
2942,0.009622039
2944,0.008961672
2946,0.008594882
2948,0.007818451
2950,0.006857782
2952,0.007211998
2954,0.007028312
2956,0.005509202
2958,0.005953246
2960,0.004931907
2962,0.006684664
2964,0.006775153
2966,0.007587369
2968,0.008292632
2970,0.008326794
2972,0.008347817
2974,0.007804007
2976,0.006362132
2978,0.00619698
2980,0.003876531
2982,0.003833403
2984,0.001927536
2986,0.001455659
2988,-1.0407E-05
2990,-0.001314157
2992,-0.001098523
2994,-0.0001743
2996,0.001114301
2998,0.000497086
3000,0.001357928
3002,0.002016206
3004,-0.000169098
3006,-0.001182964
3008,-0.000494189
3010,0.00020036
3012,-0.001694629
3014,-0.003532209
3016,-0.001025766
3018,-0.001159581
3020,0.000104077
3022,0.003875224
3024,0.005788175
3026,0.004764423
3028,0.003293835
3030,0.003404856
3032,0.004899193
3034,0.002159662
3036,-9.75606E-05
3038,-0.001105019
3040,-0.003497233
3042,-0.005980766
3044,-0.003822324
3046,-0.004561402
3048,-0.005198993
3050,-0.0079597
3052,-0.005770212
3054,-0.005098149
3056,-0.006472713
3058,-0.007295849
3060,-0.006746322
3062,-0.008785231
3064,-0.007014681
3066,-0.007317771
3068,-0.010462106
3070,-0.011903525
3072,-0.011800924
3074,-0.010494222
3076,-0.010368321
3078,-0.00934242
3080,-0.007419636
3082,-0.006566938
3084,-0.005739205
3086,-0.004169293
3088,-0.003980291
3090,-0.004967551
3092,-0.007277795
3094,-0.006794065
3096,-0.005633258
3098,-0.00562809
3100,-0.006263574
3102,-0.004930048
3104,-0.001245316
3106,0.00484031
3108,0.007285484
3110,0.014561087
3112,0.020829034
3114,0.023680255
3116,0.031458979
3118,0.039789802
3120,0.046126031
3122,0.054173672
3124,0.053871086
3126,0.056968761
3128,0.059492381
3130,0.060189851
3132,0.061569737
3134,0.056255888
3136,0.048699726
3138,0.046560619
3140,0.038929244
3142,0.036796004
3144,0.032681118
3146,0.031642726
3148,0.03496526
3150,0.032255058
3152,0.029373051
3154,0.034866232
3156,0.038851551
3158,0.037746915
3160,0.035403566
3162,0.034319755
3164,0.023490226
3166,0.017925062
3168,0.024864224
3170,0.019991822
3172,0.017295273
3174,0.014464454
3176,0.017483894
3178,0.023795364
3180,0.021111849
3182,0.024916497
3184,0.025380393
3186,0.011751399
3188,0.014387686
3190,0.00034871
3192,-0.006375896
3194,-0.010309218
3196,-0.018925958
3198,-0.01705195
3200,-0.018292424
